 .1 19.12999
 .2 18.86
 .3 18.94
 .4 18.27
 .5 18.40999
 .6 18.37
 .6999999 19.22999
 .8 18.14999
 .9 18.04
 1.0 18.26
 1.1 17.62999
 1.2 17.69
 1.3 17.85
 1.4 17.84
 1.5 17.93
 1.6 18.29
 1.7 18.37
 1.8 18.02
 1.9 18.29
 2.0 18.11
 2.1 18.37
 2.2 18.29
 2.3 18.19
 2.4 17.98999
 2.5 18.12999
 2.6 18.2
 2.7 17.46999
 2.8 17.72999
 2.9 17.04
 3.0 17.42
 3.1 16.84
 3.2 16.40999
 3.3 16.04999
 3.4 15.46
 3.5 15.46
 3.6 15.75
 3.7 16.02
 3.8 16.32999
 3.9 16.26
 4.0 16.68
 4.1 16.51
 4.2 16.65999
 4.3 16.80999
 4.4 17.30999
 4.5 17.25
 4.6 17.29999
 4.7 17.25
 4.8 17.40999
 4.9 17.65999
 5.0 17.69
 5.1 17.68
 5.2 17.71999
 5.3 17.70999
 5.4 17.79999
 5.5 17.84
 5.6 18.03
 5.7 18.27
 5.8 18.27
 5.9 18.44
 6.0 18.52
 6.1 18.77
 6.2 18.57999
 6.3 18.5
 6.4 18.65999
 6.5 18.57999
 6.6 18.79999
 6.7 19.01
 6.8 19.01
 6.9 18.98999
 7.0 18.62999
 7.1 18.80999
 7.2 18.78
 7.3 18.93
 7.4 19.13999
 7.5 19.01
 7.6 19.12999
 7.7 19.18
 7.8 19.2
 7.9 19.39999
 8.0 19.29999
 8.1 19.46999
 8.2 19.46999
 8.3 19.39999
 8.4 19.43
 8.5 19.43
 8.6 19.38999
 8.7 19.20999
 8.8 19.37
 8.9 19.47999
 9.0 19.43
 9.1 19.37999
 9.2 19.47999
 9.3 19.54999
 9.4 19.40999
 9.5 19.42
 9.6 19.69
 9.7 19.7
 9.8 19.7
 9.9 19.71999
 10.0 19.63999
 10.1 19.56999
 10.19999 19.61
 10.3 19.72999
 10.4 19.76
 10.5 19.81999
 10.6 19.84
 10.69999 19.79999
 10.8 19.79999
 10.9 19.71999
 11.0 19.71999
 11.1 19.76
 11.19999 19.79999
 11.3 19.85
 11.4 19.73999
 11.5 19.79999
 11.6 19.75
 11.69999 19.82999
 11.8 19.86
 11.9 19.82999
 12.0 19.80999
 12.1 19.87999
 12.19999 19.87999
 12.3 20.0
 12.4 20.04
 12.5 20.03
 12.6 20.05999
 12.69999 20.12
 12.8 20.12999
 12.9 20.14999
 13.0 20.07999
 13.1 20.12
 13.19999 20.18
 13.3 20.19
 13.4 20.18
 13.5 20.23999
 13.6 20.2
 13.69999 20.21999
 13.8 20.13999
 13.9 20.19
 14.0 20.15999
 14.1 20.22999
 14.19999 20.23999
 14.3 20.15999
 14.4 20.21999
 14.5 20.22999
 14.6 20.29
 14.69999 20.29
 14.8 20.29999
 14.9 20.29
 15.0 20.29
 15.1 16.39999
 15.19999 16.73999
 15.3 16.97999
 15.4 17.29
 15.5 17.54
 15.6 17.79
 15.69999 17.95
 15.8 18.15999
 15.9 18.37
 16.0 18.45999
 16.1 18.56999
 16.2 18.65999
 16.3 18.64999
 16.39999 18.79
 16.5 18.70999
 16.6 18.77
 16.7 18.79999
 16.8 18.92
 16.89999 18.93
 17.0 18.92
 17.1 18.97999
 17.2 19.02
 17.3 19.09
 17.39999 19.04999
 17.5 19.03
 17.6 19.02
 17.7 19.01
 17.8 19.06999
 17.89999 19.12
 18.0 19.17
 18.1 19.2
 18.2 19.15999
 18.3 19.23999
 18.39999 19.29999
 18.5 19.30999
 18.6 19.30999
 18.7 19.30999
 18.8 19.29999
 18.89999 19.28
 19.0 19.27
 19.1 19.29999
 19.2 19.34
 19.3 19.32999
 19.39999 19.32999
 19.5 19.37
 19.6 19.36
 19.7 19.35
 19.8 19.36
 19.89999 19.38999
 20.0 19.43
 20.1 19.43
 20.2 19.42
 20.3 19.46999
 20.39999 19.51
 20.5 19.54
 20.6 19.51
 20.7 19.56999
 20.8 19.55999
 20.89999 19.57999
 21.0 19.59
 21.1 19.56999
 21.2 19.59
 21.3 19.55999
 21.39999 19.54999
 21.5 19.52
 21.6 19.54
 21.7 19.57999
 21.8 19.54999
 21.89999 19.55999
 22.0 19.59
 22.1 19.61
 22.2 19.63999
 22.3 19.64999
 22.39999 19.67
 22.5 19.65999
 22.6 19.62999
 22.7 19.62999
 22.8 19.67
 22.89999 19.67
 23.0 19.69
 23.1 19.62999
 23.2 19.68
 23.3 19.68
 23.39999 19.63999
 23.5 19.62999
 23.6 19.62
 23.7 19.63999
 23.8 19.62999
 23.89999 19.62999
 24.0 19.61
 24.1 19.61
 24.2 19.63999
 24.3 19.64999
 24.39999 19.67
 24.5 19.69
 24.6 19.70999
 24.7 19.68
 24.8 19.67
 24.89999 19.69
 25.0 19.7
 25.1 19.72999
 25.2 19.72999
 25.3 19.76
 25.39999 19.73999
 25.5 19.77
 25.6 19.77
 25.7 19.77
 25.8 19.79999
 25.89999 19.79
 26.0 19.76
 26.1 19.79
 26.2 19.79
 26.3 19.79999
 26.39999 19.79
 26.5 19.79999
 26.6 19.82999
 26.7 19.86
 26.8 19.87999
 26.89999 19.87
 27.0 19.86
 27.1 19.87999
 27.2 19.86
 27.3 19.85
 27.39999 19.89999
 27.5 19.89999
 27.6 19.90999
 27.7 19.89999
 27.8 19.90999
 27.89999 19.89999
 28.0 19.90999
 28.1 19.92
 28.2 19.90999
 28.3 19.92
 28.39999 19.88999
 28.5 19.89999
 28.6 19.95
 28.7 19.96999
 28.8 19.93
 28.89999 19.95999
 29.0 19.93
 29.1 19.95999
 29.2 19.95999
 29.3 19.97999
 29.39999 19.98999
 29.5 20.01
 29.6 20.01
 29.7 19.98999
 29.8 19.98999
 29.89999 20.0
 30.0 20.03
