 1 -.406
 2 -.645
 3 -.811
 4 -.933
 5 -1.029
 6 -1.111
 7 -1.177
 8 -1.228
 9 -1.276
 10 -1.316
 11 -1.35
 12 -1.38
 13 -1.405
 14 -1.423
 15 -1.439
 16 -1.453
 17 -1.467
 18 -1.477
 19 -1.485
 20 -1.49
 21 -1.493
 22 -1.491
 23 -1.487
 24 -1.483
 25 -1.477
 26 -1.469
 27 -1.459
 28 -1.448
 29 -1.434
 30 -1.419
 31 -1.404
 32 -1.387
 33 -1.37
 34 -1.353
 35 -1.335
 36 -1.316
 37 -1.297
 38 -1.277
 39 -1.257
 40 -1.236
 41 -1.214
 42 -1.193
 43 -1.171
 44 -1.149
 45 -1.128
 46 -1.107
 47 -1.083
 48 -1.06
 49 -1.036
 50 -1.01
 51 -.985
 52 -.959
 53 -.935
 54 -.911
 55 -.887
 56 -.865
 57 -.842
 58 -.819
 59 -.796
 60 -.776
 61 -.755
 62 -.735
 63 -.717
 64 -.699
 65 -.681
 66 -.664
 67 -.646
 68 -.628
 69 -.613
 70 -.597
 71 -.581
 72 -.565
 73 -.551
 74 -.537
 75 -.523
 76 -.515
 77 -.51
 78 -.505
 79 -.501
 80 -.499
 81 -.499
 82 -.502
 83 -.508
 84 -.514
 85 -.517
 86 -.519
 87 -.523
 88 -.527
 89 -.531
 90 -.536
 91 -.538
 92 -.538
 93 -.538
 94 -.538
 95 -.539
 96 -.538
 97 -.536
 98 -.536
 99 -.536
 100 -.539
 101 -.544
 102 -.546
 103 -.55
 104 -.553
 105 -.553
 106 -.553
 107 -.553
 108 -.55
 109 -.546
 110 -.542
 111 -.535
 112 -.529
 113 -.522
 114 -.519
 115 -.522
 116 -.525
 117 -.53
 118 -.536
 119 -.541
 120 -.546
 121 -.543
 122 -.541
 123 -.537
 124 -.532
 125 -.529
 126 -.528
 127 -.531
 128 -.532
 129 -.534
 130 -.534
 131 -.535
 132 -.534
 133 -.531
 134 -.532
 135 -.535
 136 -.533
 137 -.532
 138 -.53
 139 -.528
 140 -.527
 141 -.53
 142 -.535
 143 -.536
 144 -.535
 145 -.541
 146 -.547
 147 -.55
 148 -.551
 149 -.549
 150 -.546
 151 -.542
 152 -.539
 153 -.534
 154 -.526
 155 -.519
 156 -.517
 157 -.514
 158 -.513
 159 -.516
 160 -.518
 161 -.517
 162 -.515
 163 -.51
 164 -.506
 165 -.507
 166 -.509
 167 -.513
 168 -.517
 169 -.523
 170 -.528
 171 -.54
 172 -.55
 173 -.557
 174 -.561
 175 -.561
 176 -.562
 177 -.561
 178 -.562
 179 -.558
 180 -.553
 181 -.548
 182 -.548
 183 -.543
 184 -.542
 185 -.537
 186 -.532
 187 -.529
 188 -.527
 189 -.529
 190 -.531
 191 -.531
 192 -.528
 193 -.529
 194 -.527
 195 -.522
 196 -.514
 197 -.508
 198 -.506
 199 -.504
 200 -.501
 201 -.506
 202 -.514
 203 -.517
 204 -.521
 205 -.518
 206 -.517
 207 -.519
 208 -.516
 209 -.514
 210 -.511
 211 -.504
 212 -.498
 213 -.494
 214 -.491
 215 -.495
 216 -.498
 217 -.496
 218 -.498
 219 -.503
 220 -.509
 221 -.515
 222 -.519
 223 -.523
 224 -.529
 225 -.532
 226 -.534
 227 -.538
 228 -.545
 229 -.548
 230 -.548
 231 -.545
 232 -.541
 233 -.534
 234 -.527
 235 -.524
 236 -.524
 237 -.521
 238 -.52
 239 -.517
 240 -.515
 241 -.515
 242 -.513
 243 -.51
 244 -.511
 245 -.515
 246 -.514
 247 -.519
 248 -.52
 249 -.52
 250 -.517
 251 -.511
 252 -.506
 253 -.504
 254 -.503
 255 -.503
 256 -.504
 257 -.506
 258 -.51
 259 -.513
 260 -.516
 261 -.516
 262 -.518
 263 -.515
 264 -.517
 265 -.517
 266 -.521
 267 -.526
 268 -.527
 269 -.523
 270 -.521
 271 -.517
 272 -.516
 273 -.515
 274 -.514
 275 -.515
 276 -.517
 277 -.521
 278 -.525
 279 -.532
 280 -.534
 281 -.538
 282 -.539
 283 -.537
 284 -.535
 285 -.536
 286 -.538
 287 -.542
 288 -.547
 289 -.55
 290 -.55
 291 -.548
 292 -.545
 293 -.542
 294 -.538
 295 -.536
 296 -.531
 297 -.526
 298 -.525
 299 -.523
 300 -.524
 301 -.523
 302 -.523
 303 -.524
 304 -.525
 305 -.527
 306 -.527
 307 -.528
 308 -.528
 309 -.531
 310 -.532
 311 -.53
 312 -.526
 313 -.524
 314 -.525
 315 -.527
 316 -.523
 317 -.519
 318 -.518
 319 -.52
 320 -.524
 321 -.523
 322 -.524
 323 -.53
 324 -.538
 325 -.545
 326 -.551
 327 -.555
 328 -.556
 329 -.558
 330 -.558
 331 -.559
 332 -.561
 333 -.56
 334 -.555
 335 -.552
 336 -.546
 337 -.539
 338 -.533
 339 -.529
 340 -.532
 341 -.532
 342 -.528
 343 -.525
 344 -.523
 345 -.524
 346 -.527
 347 -.527
 348 -.525
 349 -.527
 350 -.529
 351 -.53
 352 -.527
 353 -.523
 354 -.522
 355 -.523
 356 -.521
 357 -.522
 358 -.524
 359 -.524
 360 -.526
 361 -.527
 362 -.526
 363 -.53
 364 -.531
 365 -.532
 366 -.535
 367 -.539
 368 -.544
 369 -.546
 370 -.543
 371 -.536
 372 -.531
 373 -.529
 374 -.526
 375 -.522
 376 -.521
 377 -.52
 378 -.516
 379 -.509
 380 -.504
 381 -.502
 382 -.503
 383 -.505
 384 -.509
 385 -.511
 386 -.512
 387 -.517
 388 -.518
 389 -.518
 390 -.521
 391 -.519
 392 -.517
 393 -.517
 394 -.515
 395 -.512
 396 -.506
 397 -.499
 398 -.495
 399 -.495
 400 -.497
 401 -.508
 402 -.513
 403 -.515
 404 -.52
 405 -.519
 406 -.523
 407 -.525
 408 -.529
 409 -.528
 410 -.53
 411 -.531
 412 -.531
 413 -.53
 414 -.528
 415 -.529
 416 -.526
 417 -.523
 418 -.522
 419 -.523
 420 -.524
 421 -.523
 422 -.525
 423 -.526
 424 -.524
 425 -.52
 426 -.521
 427 -.521
 428 -.522
 429 -.523
 430 -.519
 431 -.514
 432 -.509
 433 -.508
 434 -.509
 435 -.508
 436 -.509
 437 -.512
 438 -.512
 439 -.513
 440 -.515
 441 -.516
 442 -.519
 443 -.522
 444 -.523
 445 -.526
 446 -.527
 447 -.53
 448 -.53
 449 -.529
 450 -.527
 451 -.524
 452 -.52
 453 -.518
 454 -.52
 455 -.52
 456 -.522
 457 -.526
 458 -.527
 459 -.523
 460 -.521
 461 -.519
 462 -.512
 463 -.511
 464 -.513
 465 -.506
 466 -.5
 467 -.498
 468 -.5
 469 -.501
 470 -.503
 471 -.503
 472 -.507
 473 -.507
 474 -.507
 475 -.501
 476 -.495
 477 -.491
 478 -.492
 479 -.495
 480 -.496
 481 -.499
 482 -.501
 483 -.501
 484 -.499
 485 -.502
 486 -.504
 487 -.508
 488 -.518
 489 -.521
 490 -.521
 491 -.518
 492 -.509
 493 -.498
 494 -.492
 495 -.488
 496 -.484
 497 -.482
 498 -.483
 499 -.485
 500 -.491
 501 -.494
 502 -.497
 503 -.503
 504 -.503
 505 -.505
 506 -.507
 507 -.509
 508 -.506
 509 -.51
 510 -.515
 511 -.52
 512 -.528
 513 -.531
 514 -.537
 515 -.543
 516 -.542
 517 -.541
 518 -.542
 519 -.54
 520 -.534
 521 -.53
 522 -.527
 523 -.527
 524 -.521
 525 -.512
 526 -.507
 527 -.507
 528 -.506
 529 -.501
 530 -.496
 531 -.498
 532 -.506
 533 -.512
 534 -.515
 535 -.522
 536 -.527
 537 -.53
 538 -.538
 539 -.542
 540 -.544
 541 -.545
 542 -.542
 543 -.536
 544 -.536
 545 -.539
 546 -.543
 547 -.55
 548 -.553
 549 -.557
 550 -.556
 551 -.556
 552 -.553
 553 -.553
 554 -.551
 555 -.545
 556 -.537
 557 -.529
 558 -.521
 559 -.515
 560 -.512
 561 -.51
 562 -.511
 563 -.512
 564 -.513
 565 -.519
 566 -.53
 567 -.533
 568 -.536
 569 -.533
 570 -.532
 571 -.53
 572 -.53
 573 -.528
 574 -.528
 575 -.526
 576 -.521
 577 -.518
 578 -.517
 579 -.52
 580 -.524
 581 -.523
 582 -.519
 583 -.516
 584 -.516
 585 -.519
 586 -.522
 587 -.528
 588 -.53
 589 -.532
 590 -.538
 591 -.548
 592 -.556
 593 -.561
 594 -.564
 595 -.561
 596 -.562
 597 -.556
 598 -.549
 599 -.542
 600 -.54
 601 -.534
 602 -.537
 603 -.536
 604 -.532
 605 -.529
 606 -.531
 607 -.53
 608 -.528
 609 -.527
 610 -.526
 611 -.532
 612 -.533
 613 -.53
 614 -.526
 615 -.531
 616 -.532
 617 -.528
 618 -.523
 619 -.517
 620 -.511
 621 -.504
 622 -.501
 623 -.499
 624 -.497
 625 -.497
 626 -.498
 627 -.505
 628 -.512
 629 -.517
 630 -.522
 631 -.523
 632 -.526
 633 -.526
 634 -.525
 635 -.524
 636 -.52
 637 -.517
 638 -.516
 639 -.515
 640 -.517
 641 -.52
 642 -.524
 643 -.525
 644 -.528
 645 -.53
 646 -.528
 647 -.527
 648 -.523
 649 -.517
 650 -.511
 651 -.505
 652 -.498
 653 -.494
 654 -.491
 655 -.494
 656 -.504
 657 -.509
 658 -.521
 659 -.527
 660 -.534
 661 -.537
 662 -.538
 663 -.536
 664 -.531
 665 -.529
 666 -.528
 667 -.525
 668 -.526
 669 -.523
 670 -.519
 671 -.517
 672 -.512
 673 -.509
 674 -.508
 675 -.505
 676 -.502
 677 -.501
 678 -.505
 679 -.513
 680 -.517
 681 -.52
 682 -.524
 683 -.528
 684 -.531
 685 -.533
 686 -.532
 687 -.532
 688 -.532
 689 -.532
 690 -.529
 691 -.526
 692 -.522
 693 -.52
 694 -.519
 695 -.519
 696 -.518
 697 -.513
 698 -.512
 699 -.51
 700 -.512
 701 -.514
 702 -.516
 703 -.521
 704 -.524
 705 -.522
 706 -.522
 707 -.521
 708 -.522
 709 -.526
 710 -.524
 711 -.523
 712 -.52
 713 -.515
 714 -.51
 715 -.51
 716 -.512
 717 -.509
 718 -.51
 719 -.512
 720 -.513
 721 -.515
 722 -.52
 723 -.526
 724 -.532
 725 -.534
 726 -.533
 727 -.529
 728 -.525
 729 -.519
 730 -.516
 731 -.516
 732 -.516
 733 -.522
 734 -.522
 735 -.523
 736 -.525
 737 -.522
 738 -.521
 739 -.517
 740 -.514
 741 -.512
 742 -.514
 743 -.511
 744 -.509
 745 -.508
 746 -.505
 747 -.501
 748 -.499
 749 -.497
 750 -.498
 751 -.5
 752 -.506
 753 -.508
 754 -.508
 755 -.51
 756 -.516
 757 -.52
 758 -.524
 759 -.524
 760 -.522
 761 -.516
 762 -.508
 763 -.504
 764 -.501
 765 -.498
 766 -.493
 767 -.496
 768 -.503
 769 -.51
 770 -.522
 771 -.53
 772 -.536
 773 -.536
 774 -.535
 775 -.531
 776 -.526
 777 -.525
 778 -.525
 779 -.526
 780 -.523
 781 -.517
 782 -.513
 783 -.511
 784 -.508
 785 -.509
 786 -.512
 787 -.512
 788 -.512
 789 -.514
 790 -.515
 791 -.515
 792 -.519
 793 -.517
 794 -.515
 795 -.512
 796 -.507
 797 -.503
 798 -.501
 799 -.496
 800 -.494
 801 -.505
 802 -.508
 803 -.513
 804 -.518
 805 -.52
 806 -.518
 807 -.52
 808 -.517
 809 -.512
 810 -.508
 811 -.503
 812 -.497
 813 -.497
 814 -.493
 815 -.495
 816 -.498
 817 -.496
 818 -.5
 819 -.51
 820 -.518
 821 -.528
 822 -.535
 823 -.539
 824 -.541
 825 -.542
 826 -.541
 827 -.537
 828 -.532
 829 -.529
 830 -.531
 831 -.532
 832 -.535
 833 -.54
 834 -.541
 835 -.544
 836 -.547
 837 -.553
 838 -.553
 839 -.554
 840 -.551
 841 -.547
 842 -.542
 843 -.536
 844 -.533
 845 -.534
 846 -.537
 847 -.538
 848 -.542
 849 -.538
 850 -.531
 851 -.528
 852 -.528
 853 -.525
 854 -.524
 855 -.525
 856 -.523
 857 -.522
 858 -.523
 859 -.52
 860 -.515
 861 -.512
 862 -.512
 863 -.508
 864 -.509
 865 -.509
 866 -.511
 867 -.511
 868 -.512
 869 -.51
 870 -.508
 871 -.506
 872 -.507
 873 -.506
 874 -.504
 875 -.502
 876 -.5
 877 -.499
 878 -.501
 879 -.498
 880 -.499
 881 -.501
 882 -.503
 883 -.51
 884 -.516
 885 -.52
 886 -.522
 887 -.521
 888 -.513
 889 -.507
 890 -.506
 891 -.501
 892 -.495
 893 -.494
 894 -.494
 895 -.5
 896 -.505
 897 -.506
 898 -.499
 899 -.492
 900 -.491
 901 -.492
 902 -.493
 903 -.495
 904 -.497
 905 -.498
 906 -.5
 907 -.504
 908 -.506
 909 -.506
 910 -.506
 911 -.504
 912 -.5
 913 -.496
 914 -.494
 915 -.496
 916 -.497
 917 -.499
 918 -.499
 919 -.494
 920 -.489
 921 -.487
 922 -.489
 923 -.493
 924 -.49
 925 -.493
 926 -.496
 927 -.498
 928 -.499
 929 -.499
 930 -.505
 931 -.512
 932 -.518
 933 -.516
 934 -.517
 935 -.518
 936 -.515
 937 -.515
 938 -.511
 939 -.508
 940 -.505
 941 -.498
 942 -.495
 943 -.496
 944 -.499
 945 -.506
 946 -.509
 947 -.517
 948 -.523
 949 -.529
 950 -.527
 951 -.521
 952 -.513
 953 -.506
 954 -.498
 955 -.494
 956 -.491
 957 -.486
 958 -.483
 959 -.482
 960 -.482
 961 -.483
 962 -.482
 963 -.477
 964 -.477
 965 -.476
 966 -.481
 967 -.486
 968 -.486
 969 -.484
 970 -.475
 971 -.47
 972 -.472
 973 -.478
 974 -.481
 975 -.486
 976 -.493
 977 -.498
 978 -.504
 979 -.504
 980 -.506
 981 -.508
 982 -.51
 983 -.512
 984 -.512
 985 -.512
 986 -.511
 987 -.512
 988 -.51
 989 -.506
 990 -.504
 991 -.499
 992 -.494
 993 -.487
 994 -.481
 995 -.476
 996 -.473
 997 -.47
 998 -.469
 999 -.474
 1000 -.479
