 1 .15
 2 .209
 3 .224
 4 .2249999
 5 .2249999
 6 .2179999
 7 .207
 8 .1949999
 9 .1829999
 10 .1689999
 11 .156
 12 .143
 13 .1309999
 14 .119
 15 .108
 16 9.70000E-02
 17 8.50000E-02
 18 7.60000E-02
 19 6.70000E-02
 20 5.80000E-02
 21 4.90000E-02
 22 3.90000E-02
 23 3.00000E-02
 24 2.10000E-02
 25 1.30000E-02
 26 4.00000E-03
 27 -5.00000E-03
 28 -1.40000E-02
 29 -2.40000E-02
 30 -3.40000E-02
 31 -4.10000E-02
 32 -4.50000E-02
 33 -4.80000E-02
 34 -4.90000E-02
 35 -4.90000E-02
 36 -5.00000E-02
 37 -4.90000E-02
 38 -4.70000E-02
 39 -4.40000E-02
 40 -3.80000E-02
 41 -3.50000E-02
 42 -2.90000E-02
 43 -2.30000E-02
 44 -1.70000E-02
 45 -1.00000E-02
 46 -3.00000E-03
 47 4.00000E-03
 48 9.00000E-03
 49 1.50000E-02
 50 1.80000E-02
 51 2.30000E-02
 52 2.80000E-02
 53 3.30000E-02
 54 3.90000E-02
 55 4.50000E-02
 56 5.30000E-02
 57 6.00000E-02
 58 6.50000E-02
 59 6.90000E-02
 60 7.00000E-02
 61 7.10000E-02
 62 7.20000E-02
 63 7.30000E-02
 64 7.20000E-02
 65 7.10000E-02
 66 7.00000E-02
 67 6.80000E-02
 68 6.60000E-02
 69 6.40000E-02
 70 6.20000E-02
 71 5.60000E-02
 72 5.10000E-02
 73 4.80000E-02
 74 4.20000E-02
 75 3.60000E-02
 76 3.40000E-02
 77 3.70000E-02
 78 3.90000E-02
 79 4.10000E-02
 80 3.90000E-02
 81 3.70000E-02
 82 3.70000E-02
 83 4.40000E-02
 84 4.90000E-02
 85 5.00000E-02
 86 5.30000E-02
 87 5.00000E-02
 88 4.80000E-02
 89 4.30000E-02
 90 3.90000E-02
 91 3.90000E-02
 92 3.80000E-02
 93 3.90000E-02
 94 4.10000E-02
 95 4.50000E-02
 96 5.00000E-02
 97 5.20000E-02
 98 5.40000E-02
 99 5.10000E-02
 100 4.90000E-02
 101 5.20000E-02
 102 5.40000E-02
 103 5.20000E-02
 104 4.60000E-02
 105 5.00000E-02
 106 5.30000E-02
 107 5.00000E-02
 108 4.50000E-02
 109 4.30000E-02
 110 3.90000E-02
 111 4.00000E-02
 112 3.80000E-02
 113 3.60000E-02
 114 3.90000E-02
 115 4.30000E-02
 116 4.20000E-02
 117 4.90000E-02
 118 5.20000E-02
 119 5.70000E-02
 120 5.90000E-02
 121 6.00000E-02
 122 5.90000E-02
 123 5.60000E-02
 124 5.70000E-02
 125 5.30000E-02
 126 5.00000E-02
 127 4.70000E-02
 128 4.30000E-02
 129 4.60000E-02
 130 4.90000E-02
 131 5.10000E-02
 132 5.00000E-02
 133 4.80000E-02
 134 4.70000E-02
 135 4.60000E-02
 136 4.50000E-02
 137 3.80000E-02
 138 3.80000E-02
 139 4.10000E-02
 140 4.50000E-02
 141 5.30000E-02
 142 5.50000E-02
 143 5.60000E-02
 144 5.30000E-02
 145 5.60000E-02
 146 5.60000E-02
 147 5.60000E-02
 148 5.30000E-02
 149 4.80000E-02
 150 4.70000E-02
 151 4.90000E-02
 152 4.90000E-02
 153 4.80000E-02
 154 5.00000E-02
 155 5.00000E-02
 156 5.10000E-02
 157 4.90000E-02
 158 4.90000E-02
 159 5.20000E-02
 160 5.40000E-02
 161 5.40000E-02
 162 5.70000E-02
 163 5.70000E-02
 164 5.80000E-02
 165 6.00000E-02
 166 5.90000E-02
 167 6.00000E-02
 168 6.10000E-02
 169 5.70000E-02
 170 6.20000E-02
 171 6.40000E-02
 172 6.00000E-02
 173 6.00000E-02
 174 5.80000E-02
 175 5.90000E-02
 176 5.60000E-02
 177 5.80000E-02
 178 6.30000E-02
 179 6.60000E-02
 180 6.40000E-02
 181 6.40000E-02
 182 6.50000E-02
 183 6.50000E-02
 184 6.30000E-02
 185 6.40000E-02
 186 6.20000E-02
 187 5.80000E-02
 188 5.50000E-02
 189 5.90000E-02
 190 6.00000E-02
 191 6.20000E-02
 192 6.00000E-02
 193 6.10000E-02
 194 5.90000E-02
 195 5.70000E-02
 196 5.50000E-02
 197 5.30000E-02
 198 5.60000E-02
 199 5.90000E-02
 200 6.10000E-02
 201 6.70000E-02
 202 6.40000E-02
 203 6.40000E-02
 204 6.20000E-02
 205 5.80000E-02
 206 5.20000E-02
 207 5.10000E-02
 208 5.30000E-02
 209 5.80000E-02
 210 6.00000E-02
 211 5.60000E-02
 212 5.70000E-02
 213 5.40000E-02
 214 5.20000E-02
 215 5.20000E-02
 216 5.30000E-02
 217 5.30000E-02
 218 5.50000E-02
 219 5.90000E-02
 220 6.00000E-02
 221 6.00000E-02
 222 5.60000E-02
 223 6.00000E-02
 224 6.50000E-02
 225 6.00000E-02
 226 5.50000E-02
 227 5.60000E-02
 228 6.00000E-02
 229 6.20000E-02
 230 6.30000E-02
 231 6.10000E-02
 232 5.70000E-02
 233 5.60000E-02
 234 5.10000E-02
 235 4.80000E-02
 236 5.20000E-02
 237 4.80000E-02
 238 4.40000E-02
 239 4.60000E-02
 240 4.90000E-02
 241 4.50000E-02
 242 4.60000E-02
 243 4.70000E-02
 244 4.80000E-02
 245 5.00000E-02
 246 5.40000E-02
 247 6.20000E-02
 248 6.10000E-02
 249 6.30000E-02
 250 5.80000E-02
 251 5.80000E-02
 252 5.30000E-02
 253 5.10000E-02
 254 4.80000E-02
 255 4.80000E-02
 256 5.10000E-02
 257 5.00000E-02
 258 4.50000E-02
 259 4.90000E-02
 260 4.50000E-02
 261 4.00000E-02
 262 4.20000E-02
 263 4.40000E-02
 264 4.80000E-02
 265 5.00000E-02
 266 5.20000E-02
 267 5.50000E-02
 268 5.50000E-02
 269 5.60000E-02
 270 5.00000E-02
 271 4.80000E-02
 272 4.80000E-02
 273 4.30000E-02
 274 3.60000E-02
 275 3.90000E-02
 276 4.20000E-02
 277 4.30000E-02
 278 4.60000E-02
 279 4.90000E-02
 280 4.80000E-02
 281 5.00000E-02
 282 5.40000E-02
 283 5.60000E-02
 284 5.50000E-02
 285 5.40000E-02
 286 5.40000E-02
 287 5.40000E-02
 288 5.70000E-02
 289 6.20000E-02
 290 6.00000E-02
 291 5.80000E-02
 292 5.50000E-02
 293 5.20000E-02
 294 5.00000E-02
 295 5.50000E-02
 296 5.20000E-02
 297 5.30000E-02
 298 5.50000E-02
 299 5.10000E-02
 300 4.80000E-02
 301 4.90000E-02
 302 5.00000E-02
 303 4.90000E-02
 304 4.80000E-02
 305 5.00000E-02
 306 5.60000E-02
 307 5.90000E-02
 308 5.50000E-02
 309 5.10000E-02
 310 4.60000E-02
 311 4.70000E-02
 312 5.00000E-02
 313 5.40000E-02
 314 5.20000E-02
 315 5.00000E-02
 316 4.50000E-02
 317 5.20000E-02
 318 5.50000E-02
 319 5.60000E-02
 320 5.40000E-02
 321 5.10000E-02
 322 5.30000E-02
 323 5.70000E-02
 324 6.20000E-02
 325 6.00000E-02
 326 6.20000E-02
 327 6.10000E-02
 328 6.30000E-02
 329 6.10000E-02
 330 6.10000E-02
 331 5.70000E-02
 332 5.10000E-02
 333 5.20000E-02
 334 5.00000E-02
 335 4.90000E-02
 336 4.50000E-02
 337 4.60000E-02
 338 5.10000E-02
 339 5.40000E-02
 340 5.60000E-02
 341 6.30000E-02
 342 5.90000E-02
 343 5.50000E-02
 344 5.30000E-02
 345 5.10000E-02
 346 5.90000E-02
 347 5.80000E-02
 348 6.30000E-02
 349 6.10000E-02
 350 6.00000E-02
 351 5.80000E-02
 352 5.50000E-02
 353 5.80000E-02
 354 6.60000E-02
 355 6.60000E-02
 356 6.50000E-02
 357 6.70000E-02
 358 6.40000E-02
 359 5.80000E-02
 360 5.90000E-02
 361 5.50000E-02
 362 5.30000E-02
 363 5.30000E-02
 364 5.40000E-02
 365 5.10000E-02
 366 5.20000E-02
 367 5.30000E-02
 368 5.20000E-02
 369 4.80000E-02
 370 4.60000E-02
 371 5.10000E-02
 372 5.60000E-02
 373 5.50000E-02
 374 4.90000E-02
 375 4.80000E-02
 376 4.50000E-02
 377 4.60000E-02
 378 4.50000E-02
 379 4.50000E-02
 380 5.20000E-02
 381 4.90000E-02
 382 4.80000E-02
 383 5.10000E-02
 384 5.30000E-02
 385 5.30000E-02
 386 5.30000E-02
 387 5.40000E-02
 388 5.40000E-02
 389 5.50000E-02
 390 5.20000E-02
 391 4.80000E-02
 392 5.00000E-02
 393 4.90000E-02
 394 5.10000E-02
 395 4.80000E-02
 396 5.20000E-02
 397 5.10000E-02
 398 5.50000E-02
 399 5.30000E-02
 400 5.70000E-02
 401 6.00000E-02
 402 6.00000E-02
 403 6.10000E-02
 404 5.60000E-02
 405 5.30000E-02
 406 5.90000E-02
 407 6.00000E-02
 408 5.80000E-02
 409 5.40000E-02
 410 5.20000E-02
 411 5.10000E-02
 412 5.10000E-02
 413 4.90000E-02
 414 5.30000E-02
 415 5.90000E-02
 416 6.40000E-02
 417 6.20000E-02
 418 5.90000E-02
 419 5.50000E-02
 420 5.40000E-02
 421 5.50000E-02
 422 5.60000E-02
 423 5.30000E-02
 424 5.50000E-02
 425 5.30000E-02
 426 4.80000E-02
 427 4.90000E-02
 428 5.30000E-02
 429 5.40000E-02
 430 5.80000E-02
 431 5.70000E-02
 432 6.20000E-02
 433 6.40000E-02
 434 6.50000E-02
 435 6.50000E-02
 436 5.90000E-02
 437 5.80000E-02
 438 5.20000E-02
 439 5.40000E-02
 440 5.60000E-02
 441 5.30000E-02
 442 5.00000E-02
 443 4.70000E-02
 444 4.90000E-02
 445 5.20000E-02
 446 5.40000E-02
 447 5.10000E-02
 448 5.00000E-02
 449 5.20000E-02
 450 5.20000E-02
 451 5.60000E-02
 452 5.60000E-02
 453 5.30000E-02
 454 5.20000E-02
 455 5.90000E-02
 456 5.70000E-02
 457 5.90000E-02
 458 5.70000E-02
 459 5.70000E-02
 460 5.50000E-02
 461 5.30000E-02
 462 5.10000E-02
 463 4.70000E-02
 464 5.20000E-02
 465 4.80000E-02
 466 4.20000E-02
 467 4.40000E-02
 468 4.50000E-02
 469 4.30000E-02
 470 4.30000E-02
 471 4.10000E-02
 472 5.10000E-02
 473 5.10000E-02
 474 5.50000E-02
 475 5.10000E-02
 476 4.80000E-02
 477 5.00000E-02
 478 4.70000E-02
 479 5.10000E-02
 480 5.10000E-02
 481 5.00000E-02
 482 4.90000E-02
 483 4.60000E-02
 484 4.60000E-02
 485 4.90000E-02
 486 4.80000E-02
 487 4.60000E-02
 488 5.10000E-02
 489 5.70000E-02
 490 5.90000E-02
 491 5.80000E-02
 492 5.40000E-02
 493 5.30000E-02
 494 4.80000E-02
 495 4.60000E-02
 496 4.40000E-02
 497 4.50000E-02
 498 4.40000E-02
 499 4.90000E-02
 500 5.90000E-02
 501 6.10000E-02
 502 5.80000E-02
 503 5.80000E-02
 504 5.90000E-02
 505 5.90000E-02
 506 6.00000E-02
 507 5.70000E-02
 508 5.70000E-02
 509 5.50000E-02
 510 5.50000E-02
 511 5.50000E-02
 512 5.70000E-02
 513 5.60000E-02
 514 5.90000E-02
 515 5.90000E-02
 516 5.30000E-02
 517 5.00000E-02
 518 4.80000E-02
 519 4.50000E-02
 520 4.10000E-02
 521 3.80000E-02
 522 3.80000E-02
 523 3.90000E-02
 524 4.20000E-02
 525 4.40000E-02
 526 3.90000E-02
 527 4.70000E-02
 528 5.10000E-02
 529 5.00000E-02
 530 4.50000E-02
 531 4.30000E-02
 532 4.20000E-02
 533 4.40000E-02
 534 4.70000E-02
 535 4.80000E-02
 536 4.80000E-02
 537 4.50000E-02
 538 4.10000E-02
 539 3.90000E-02
 540 4.00000E-02
 541 3.70000E-02
 542 3.70000E-02
 543 4.00000E-02
 544 4.50000E-02
 545 4.30000E-02
 546 4.50000E-02
 547 4.60000E-02
 548 4.30000E-02
 549 4.10000E-02
 550 3.70000E-02
 551 3.40000E-02
 552 3.10000E-02
 553 3.50000E-02
 554 3.40000E-02
 555 3.20000E-02
 556 3.20000E-02
 557 2.90000E-02
 558 3.00000E-02
 559 2.80000E-02
 560 3.00000E-02
 561 3.60000E-02
 562 3.50000E-02
 563 3.50000E-02
 564 4.00000E-02
 565 5.10000E-02
 566 6.00000E-02
 567 6.30000E-02
 568 5.80000E-02
 569 5.60000E-02
 570 5.10000E-02
 571 5.20000E-02
 572 4.90000E-02
 573 4.40000E-02
 574 4.50000E-02
 575 5.00000E-02
 576 4.90000E-02
 577 5.10000E-02
 578 4.90000E-02
 579 5.40000E-02
 580 5.40000E-02
 581 5.10000E-02
 582 4.60000E-02
 583 5.00000E-02
 584 4.40000E-02
 585 4.90000E-02
 586 4.90000E-02
 587 4.60000E-02
 588 4.30000E-02
 589 4.60000E-02
 590 4.20000E-02
 591 4.50000E-02
 592 5.20000E-02
 593 5.30000E-02
 594 5.10000E-02
 595 4.80000E-02
 596 4.90000E-02
 597 4.40000E-02
 598 4.10000E-02
 599 3.70000E-02
 600 3.70000E-02
 601 3.90000E-02
 602 4.30000E-02
 603 4.60000E-02
 604 4.70000E-02
 605 4.10000E-02
 606 4.00000E-02
 607 4.40000E-02
 608 4.30000E-02
 609 4.10000E-02
 610 4.00000E-02
 611 4.20000E-02
 612 4.40000E-02
 613 3.90000E-02
 614 4.00000E-02
 615 4.40000E-02
 616 4.50000E-02
 617 4.10000E-02
 618 3.90000E-02
 619 3.70000E-02
 620 4.10000E-02
 621 3.80000E-02
 622 3.60000E-02
 623 3.90000E-02
 624 4.00000E-02
 625 4.20000E-02
 626 4.70000E-02
 627 4.70000E-02
 628 5.00000E-02
 629 5.10000E-02
 630 5.60000E-02
 631 4.90000E-02
 632 4.80000E-02
 633 4.90000E-02
 634 4.60000E-02
 635 4.10000E-02
 636 4.60000E-02
 637 5.20000E-02
 638 5.20000E-02
 639 5.10000E-02
 640 4.70000E-02
 641 4.60000E-02
 642 4.50000E-02
 643 4.10000E-02
 644 4.50000E-02
 645 4.40000E-02
 646 4.20000E-02
 647 3.70000E-02
 648 3.70000E-02
 649 3.50000E-02
 650 3.50000E-02
 651 3.50000E-02
 652 3.90000E-02
 653 4.00000E-02
 654 4.20000E-02
 655 4.50000E-02
 656 4.70000E-02
 657 4.30000E-02
 658 4.80000E-02
 659 4.80000E-02
 660 5.00000E-02
 661 5.10000E-02
 662 4.80000E-02
 663 4.80000E-02
 664 4.90000E-02
 665 4.50000E-02
 666 3.80000E-02
 667 3.40000E-02
 668 3.50000E-02
 669 3.40000E-02
 670 3.90000E-02
 671 4.10000E-02
 672 3.80000E-02
 673 3.40000E-02
 674 3.10000E-02
 675 3.20000E-02
 676 3.90000E-02
 677 4.40000E-02
 678 4.50000E-02
 679 4.20000E-02
 680 4.50000E-02
 681 4.40000E-02
 682 4.20000E-02
 683 4.20000E-02
 684 4.10000E-02
 685 4.20000E-02
 686 3.90000E-02
 687 3.60000E-02
 688 2.90000E-02
 689 2.60000E-02
 690 3.20000E-02
 691 3.10000E-02
 692 3.00000E-02
 693 3.00000E-02
 694 2.70000E-02
 695 2.60000E-02
 696 2.90000E-02
 697 3.20000E-02
 698 3.80000E-02
 699 4.10000E-02
 700 4.10000E-02
 701 4.20000E-02
 702 4.40000E-02
 703 4.90000E-02
 704 5.10000E-02
 705 4.90000E-02
 706 4.90000E-02
 707 4.20000E-02
 708 4.00000E-02
 709 3.90000E-02
 710 3.80000E-02
 711 3.90000E-02
 712 3.60000E-02
 713 3.60000E-02
 714 2.90000E-02
 715 3.10000E-02
 716 3.50000E-02
 717 3.50000E-02
 718 3.50000E-02
 719 3.80000E-02
 720 4.10000E-02
 721 4.20000E-02
 722 4.20000E-02
 723 4.80000E-02
 724 5.10000E-02
 725 4.90000E-02
 726 4.70000E-02
 727 4.90000E-02
 728 5.20000E-02
 729 5.30000E-02
 730 5.20000E-02
 731 5.30000E-02
 732 5.50000E-02
 733 5.70000E-02
 734 5.60000E-02
 735 5.70000E-02
 736 6.20000E-02
 737 5.90000E-02
 738 5.60000E-02
 739 5.10000E-02
 740 5.20000E-02
 741 5.10000E-02
 742 5.30000E-02
 743 5.20000E-02
 744 5.20000E-02
 745 4.90000E-02
 746 4.40000E-02
 747 4.30000E-02
 748 5.10000E-02
 749 5.40000E-02
 750 5.60000E-02
 751 5.40000E-02
 752 5.50000E-02
 753 5.50000E-02
 754 5.60000E-02
 755 5.50000E-02
 756 5.40000E-02
 757 5.20000E-02
 758 5.20000E-02
 759 4.60000E-02
 760 4.80000E-02
 761 4.60000E-02
 762 4.50000E-02
 763 5.10000E-02
 764 4.90000E-02
 765 5.40000E-02
 766 5.40000E-02
 767 5.40000E-02
 768 5.70000E-02
 769 6.30000E-02
 770 6.40000E-02
 771 6.30000E-02
 772 6.80000E-02
 773 6.60000E-02
 774 6.10000E-02
 775 6.20000E-02
 776 5.70000E-02
 777 5.40000E-02
 778 5.40000E-02
 779 5.30000E-02
 780 4.90000E-02
 781 5.30000E-02
 782 4.80000E-02
 783 4.70000E-02
 784 5.00000E-02
 785 5.10000E-02
 786 5.10000E-02
 787 5.00000E-02
 788 5.20000E-02
 789 5.00000E-02
 790 4.90000E-02
 791 5.30000E-02
 792 5.20000E-02
 793 5.20000E-02
 794 4.40000E-02
 795 4.50000E-02
 796 4.20000E-02
 797 4.80000E-02
 798 4.50000E-02
 799 4.40000E-02
 800 4.30000E-02
 801 5.00000E-02
 802 5.00000E-02
 803 5.00000E-02
 804 5.30000E-02
 805 5.70000E-02
 806 5.60000E-02
 807 5.60000E-02
 808 5.20000E-02
 809 5.20000E-02
 810 5.50000E-02
 811 5.20000E-02
 812 5.10000E-02
 813 5.10000E-02
 814 4.90000E-02
 815 5.10000E-02
 816 5.20000E-02
 817 5.20000E-02
 818 5.20000E-02
 819 5.50000E-02
 820 5.70000E-02
 821 5.80000E-02
 822 6.10000E-02
 823 6.50000E-02
 824 6.40000E-02
 825 6.50000E-02
 826 6.70000E-02
 827 6.70000E-02
 828 6.30000E-02
 829 6.00000E-02
 830 5.90000E-02
 831 6.00000E-02
 832 5.70000E-02
 833 6.20000E-02
 834 6.20000E-02
 835 6.50000E-02
 836 6.50000E-02
 837 6.60000E-02
 838 6.30000E-02
 839 6.20000E-02
 840 5.60000E-02
 841 5.50000E-02
 842 5.70000E-02
 843 5.10000E-02
 844 4.90000E-02
 845 5.40000E-02
 846 5.90000E-02
 847 6.00000E-02
 848 5.70000E-02
 849 5.60000E-02
 850 6.00000E-02
 851 5.70000E-02
 852 5.40000E-02
 853 5.10000E-02
 854 5.20000E-02
 855 5.20000E-02
 856 5.80000E-02
 857 5.50000E-02
 858 5.60000E-02
 859 5.50000E-02
 860 5.30000E-02
 861 5.30000E-02
 862 5.70000E-02
 863 5.30000E-02
 864 5.90000E-02
 865 5.60000E-02
 866 5.90000E-02
 867 6.30000E-02
 868 6.30000E-02
 869 6.60000E-02
 870 6.90000E-02
 871 6.80000E-02
 872 6.50000E-02
 873 6.40000E-02
 874 6.00000E-02
 875 5.80000E-02
 876 5.50000E-02
 877 5.50000E-02
 878 5.60000E-02
 879 5.50000E-02
 880 5.60000E-02
 881 6.20000E-02
 882 6.00000E-02
 883 5.80000E-02
 884 6.10000E-02
 885 6.20000E-02
 886 6.30000E-02
 887 5.80000E-02
 888 5.60000E-02
 889 5.30000E-02
 890 5.10000E-02
 891 5.20000E-02
 892 5.80000E-02
 893 5.50000E-02
 894 6.30000E-02
 895 6.80000E-02
 896 7.00000E-02
 897 6.90000E-02
 898 6.60000E-02
 899 6.20000E-02
 900 6.30000E-02
 901 6.40000E-02
 902 7.00000E-02
 903 6.90000E-02
 904 6.80000E-02
 905 6.80000E-02
 906 7.10000E-02
 907 7.00000E-02
 908 6.90000E-02
 909 6.50000E-02
 910 6.00000E-02
 911 6.20000E-02
 912 6.30000E-02
 913 6.50000E-02
 914 6.60000E-02
 915 6.50000E-02
 916 6.50000E-02
 917 6.40000E-02
 918 6.10000E-02
 919 5.60000E-02
 920 5.70000E-02
 921 5.90000E-02
 922 6.20000E-02
 923 6.70000E-02
 924 7.10000E-02
 925 7.20000E-02
 926 7.00000E-02
 927 7.10000E-02
 928 7.10000E-02
 929 6.90000E-02
 930 6.60000E-02
 931 6.70000E-02
 932 6.50000E-02
 933 6.20000E-02
 934 5.90000E-02
 935 5.80000E-02
 936 5.90000E-02
 937 5.90000E-02
 938 5.60000E-02
 939 5.20000E-02
 940 5.60000E-02
 941 5.10000E-02
 942 5.30000E-02
 943 5.00000E-02
 944 5.10000E-02
 945 5.20000E-02
 946 5.40000E-02
 947 5.90000E-02
 948 6.20000E-02
 949 6.40000E-02
 950 6.00000E-02
 951 5.50000E-02
 952 5.20000E-02
 953 5.10000E-02
 954 5.60000E-02
 955 5.70000E-02
 956 6.20000E-02
 957 6.60000E-02
 958 6.80000E-02
 959 6.80000E-02
 960 7.00000E-02
 961 7.20000E-02
 962 7.40000E-02
 963 7.50000E-02
 964 7.00000E-02
 965 7.10000E-02
 966 7.30000E-02
 967 8.00000E-02
 968 7.80000E-02
 969 7.80000E-02
 970 7.50000E-02
 971 7.50000E-02
 972 7.30000E-02
 973 7.70000E-02
 974 7.40000E-02
 975 7.40000E-02
 976 7.30000E-02
 977 7.10000E-02
 978 6.70000E-02
 979 6.30000E-02
 980 6.00000E-02
 981 6.20000E-02
 982 6.10000E-02
 983 6.20000E-02
 984 6.00000E-02
 985 5.70000E-02
 986 5.50000E-02
 987 5.60000E-02
 988 5.90000E-02
 989 6.00000E-02
 990 5.80000E-02
 991 5.70000E-02
 992 5.60000E-02
 993 5.80000E-02
 994 5.70000E-02
 995 5.90000E-02
 996 5.70000E-02
 997 5.30000E-02
 998 5.60000E-02
 999 6.50000E-02
 1000 6.80000E-02
