 1 -.182
 2 -.271
 3 -.298
 4 -.3
 5 -.314
 6 -.321
 7 -.324
 8 -.325
 9 -.327
 10 -.327
 11 -.325
 12 -.325
 13 -.323
 14 -.323
 15 -.322
 16 -.323
 17 -.319
 18 -.318
 19 -.317
 20 -.319
 21 -.32
 22 -.318
 23 -.318
 24 -.315
 25 -.318
 26 -.318
 27 -.318
 28 -.32
 29 -.318
 30 -.314
 31 -.309
 32 -.306
 33 -.302
 34 -.301
 35 -.3
 36 -.3
 37 -.296
 38 -.293
 39 -.289
 40 -.293
 41 -.289
 42 -.287
 43 -.288
 44 -.286
 45 -.286
 46 -.286
 47 -.289
 48 -.289
 49 -.293
 50 -.29
 51 -.29
 52 -.29
 53 -.29
 54 -.287
 55 -.284
 56 -.286
 57 -.291
 58 -.292
 59 -.297
 60 -.299
 61 -.298
 62 -.297
 63 -.303
 64 -.301
 65 -.302
 66 -.304
 67 -.303
 68 -.305
 69 -.305
 70 -.311
 71 -.31
 72 -.307
 73 -.311
 74 -.312
 75 -.303
 76 -.295
 77 -.295
 78 -.297
 79 -.302
 80 -.304
 81 -.302
 82 -.284
 83 -.292
 84 -.297
 85 -.295
 86 -.305
 87 -.303
 88 -.311
 89 -.307
 90 -.301
 91 -.301
 92 -.298
 93 -.295
 94 -.293
 95 -.29
 96 -.296
 97 -.295
 98 -.306
 99 -.306
 100 -.293
 101 -.295
 102 -.306
 103 -.311
 104 -.291
 105 -.295
 106 -.306
 107 -.31
 108 -.305
 109 -.307
 110 -.3
 111 -.303
 112 -.305
 113 -.293
 114 -.293
 115 -.302
 116 -.285
 117 -.294
 118 -.29
 119 -.297
 120 -.298
 121 -.302
 122 -.307
 123 -.298
 124 -.309
 125 -.305
 126 -.306
 127 -.308
 128 -.294
 129 -.295
 130 -.296
 131 -.301
 132 -.304
 133 -.302
 134 -.302
 135 -.302
 136 -.314
 137 -.299
 138 -.295
 139 -.291
 140 -.284
 141 -.297
 142 -.297
 143 -.307
 144 -.293
 145 -.301
 146 -.3
 147 -.305
 148 -.31
 149 -.302
 150 -.297
 151 -.3
 152 -.301
 153 -.296
 154 -.3
 155 -.298
 156 -.305
 157 -.301
 158 -.293
 159 -.295
 160 -.301
 161 -.293
 162 -.301
 163 -.297
 164 -.296
 165 -.302
 166 -.298
 167 -.3
 168 -.307
 169 -.289
 170 -.298
 171 -.307
 172 -.3
 173 -.305
 174 -.298
 175 -.306
 176 -.297
 177 -.289
 178 -.294
 179 -.305
 180 -.3
 181 -.299
 182 -.299
 183 -.303
 184 -.3
 185 -.303
 186 -.308
 187 -.306
 188 -.293
 189 -.297
 190 -.296
 191 -.305
 192 -.297
 193 -.305
 194 -.304
 195 -.305
 196 -.304
 197 -.293
 198 -.294
 199 -.296
 200 -.294
 201 -.305
 202 -.301
 203 -.304
 204 -.308
 205 -.312
 206 -.302
 207 -.297
 208 -.29
 209 -.296
 210 -.308
 211 -.298
 212 -.306
 213 -.304
 214 -.299
 215 -.299
 216 -.3
 217 -.297
 218 -.291
 219 -.298
 220 -.301
 221 -.307
 222 -.293
 223 -.29
 224 -.309
 225 -.311
 226 -.297
 227 -.292
 228 -.297
 229 -.297
 230 -.305
 231 -.307
 232 -.303
 233 -.309
 234 -.307
 235 -.292
 236 -.307
 237 -.309
 238 -.295
 239 -.295
 240 -.307
 241 -.299
 242 -.299
 243 -.297
 244 -.295
 245 -.293
 246 -.283
 247 -.302
 248 -.297
 249 -.309
 250 -.301
 251 -.31
 252 -.303
 253 -.305
 254 -.301
 255 -.294
 256 -.301
 257 -.31
 258 -.294
 259 -.307
 260 -.309
 261 -.296
 262 -.297
 263 -.291
 264 -.297
 265 -.296
 266 -.294
 267 -.299
 268 -.299
 269 -.312
 270 -.303
 271 -.301
 272 -.309
 273 -.315
 274 -.294
 275 -.293
 276 -.299
 277 -.294
 278 -.293
 279 -.303
 280 -.297
 281 -.291
 282 -.297
 283 -.301
 284 -.302
 285 -.3
 286 -.299
 287 -.295
 288 -.29
 289 -.303
 290 -.304
 291 -.307
 292 -.305
 293 -.305
 294 -.29
 295 -.306
 296 -.298
 297 -.297
 298 -.307
 299 -.307
 300 -.299
 301 -.298
 302 -.301
 303 -.302
 304 -.298
 305 -.287
 306 -.294
 307 -.309
 308 -.308
 309 -.309
 310 -.298
 311 -.294
 312 -.292
 313 -.304
 314 -.303
 315 -.31
 316 -.286
 317 -.295
 318 -.297
 319 -.305
 320 -.306
 321 -.297
 322 -.292
 323 -.29
 324 -.304
 325 -.296
 326 -.301
 327 -.297
 328 -.305
 329 -.299
 330 -.309
 331 -.313
 332 -.297
 333 -.305
 334 -.301
 335 -.308
 336 -.299
 337 -.291
 338 -.293
 339 -.295
 340 -.287
 341 -.308
 342 -.308
 343 -.304
 344 -.303
 345 -.286
 346 -.301
 347 -.29
 348 -.305
 349 -.301
 350 -.303
 351 -.306
 352 -.295
 353 -.283
 354 -.299
 355 -.303
 356 -.296
 357 -.306
 358 -.311
 359 -.298
 360 -.308
 361 -.303
 362 -.299
 363 -.299
 364 -.307
 365 -.298
 366 -.299
 367 -.301
 368 -.308
 369 -.304
 370 -.291
 371 -.29
 372 -.302
 373 -.311
 374 -.304
 375 -.305
 376 -.298
 377 -.302
 378 -.301
 379 -.286
 380 -.306
 381 -.303
 382 -.292
 383 -.297
 384 -.3
 385 -.299
 386 -.298
 387 -.3
 388 -.299
 389 -.305
 390 -.309
 391 -.296
 392 -.303
 393 -.295
 394 -.305
 395 -.292
 396 -.303
 397 -.293
 398 -.304
 399 -.292
 400 -.296
 401 -.302
 402 -.298
 403 -.309
 404 -.307
 405 -.288
 406 -.298
 407 -.304
 408 -.308
 409 -.304
 410 -.303
 411 -.299
 412 -.304
 413 -.292
 414 -.287
 415 -.291
 416 -.304
 417 -.306
 418 -.308
 419 -.303
 420 -.297
 421 -.298
 422 -.307
 423 -.295
 424 -.304
 425 -.311
 426 -.298
 427 -.291
 428 -.299
 429 -.292
 430 -.3
 431 -.29
 432 -.296
 433 -.298
 434 -.301
 435 -.311
 436 -.303
 437 -.311
 438 -.297
 439 -.295
 440 -.306
 441 -.306
 442 -.305
 443 -.296
 444 -.295
 445 -.295
 446 -.307
 447 -.3
 448 -.297
 449 -.3
 450 -.291
 451 -.301
 452 -.305
 453 -.302
 454 -.287
 455 -.303
 456 -.296
 457 -.305
 458 -.299
 459 -.305
 460 -.305
 461 -.303
 462 -.308
 463 -.291
 464 -.307
 465 -.312
 466 -.297
 467 -.298
 468 -.304
 469 -.298
 470 -.305
 471 -.28
 472 -.299
 473 -.294
 474 -.307
 475 -.306
 476 -.295
 477 -.307
 478 -.292
 479 -.299
 480 -.303
 481 -.301
 482 -.305
 483 -.3
 484 -.295
 485 -.301
 486 -.304
 487 -.291
 488 -.288
 489 -.295
 490 -.301
 491 -.309
 492 -.303
 493 -.309
 494 -.304
 495 -.305
 496 -.299
 497 -.301
 498 -.289
 499 -.281
 500 -.296
 501 -.306
 502 -.3
 503 -.297
 504 -.301
 505 -.298
 506 -.305
 507 -.3
 508 -.303
 509 -.301
 510 -.3
 511 -.297
 512 -.302
 513 -.294
 514 -.299
 515 -.312
 516 -.306
 517 -.305
 518 -.305
 519 -.308
 520 -.306
 521 -.301
 522 -.297
 523 -.295
 524 -.296
 525 -.311
 526 -.282
 527 -.292
 528 -.302
 529 -.31
 530 -.305
 531 -.302
 532 -.296
 533 -.295
 534 -.298
 535 -.3
 536 -.306
 537 -.307
 538 -.305
 539 -.298
 540 -.306
 541 -.299
 542 -.294
 543 -.289
 544 -.304
 545 -.297
 546 -.298
 547 -.305
 548 -.305
 549 -.308
 550 -.305
 551 -.306
 552 -.292
 553 -.302
 554 -.304
 555 -.301
 556 -.305
 557 -.299
 558 -.304
 559 -.295
 560 -.288
 561 -.303
 562 -.299
 563 -.291
 564 -.277
 565 -.282
 566 -.296
 567 -.31
 568 -.303
 569 -.31
 570 -.298
 571 -.306
 572 -.31
 573 -.298
 574 -.29
 575 -.303
 576 -.296
 577 -.303
 578 -.29
 579 -.3
 580 -.307
 581 -.308
 582 -.294
 583 -.311
 584 -.291
 585 -.299
 586 -.306
 587 -.306
 588 -.295
 589 -.308
 590 -.294
 591 -.286
 592 -.299
 593 -.304
 594 -.306
 595 -.298
 596 -.31
 597 -.305
 598 -.308
 599 -.3
 600 -.298
 601 -.293
 602 -.294
 603 -.299
 604 -.312
 605 -.302
 606 -.292
 607 -.303
 608 -.303
 609 -.304
 610 -.295
 611 -.297
 612 -.309
 613 -.299
 614 -.291
 615 -.298
 616 -.307
 617 -.304
 618 -.304
 619 -.293
 620 -.306
 621 -.303
 622 -.294
 623 -.299
 624 -.295
 625 -.29
 626 -.3
 627 -.294
 628 -.298
 629 -.291
 630 -.312
 631 -.304
 632 -.297
 633 -.306
 634 -.31
 635 -.289
 636 -.289
 637 -.299
 638 -.303
 639 -.306
 640 -.304
 641 -.3
 642 -.308
 643 -.292
 644 -.303
 645 -.304
 646 -.311
 647 -.3
 648 -.304
 649 -.299
 650 -.3
 651 -.291
 652 -.299
 653 -.295
 654 -.295
 655 -.296
 656 -.308
 657 -.289
 658 -.3
 659 -.296
 660 -.298
 661 -.305
 662 -.301
 663 -.297
 664 -.308
 665 -.314
 666 -.308
 667 -.298
 668 -.301
 669 -.291
 670 -.296
 671 -.306
 672 -.308
 673 -.306
 674 -.297
 675 -.287
 676 -.29
 677 -.298
 678 -.305
 679 -.294
 680 -.302
 681 -.304
 682 -.299
 683 -.303
 684 -.297
 685 -.307
 686 -.305
 687 -.314
 688 -.306
 689 -.289
 690 -.302
 691 -.302
 692 -.299
 693 -.306
 694 -.303
 695 -.295
 696 -.294
 697 -.288
 698 -.293
 699 -.3
 700 -.299
 701 -.296
 702 -.29
 703 -.295
 704 -.304
 705 -.3
 706 -.315
 707 -.303
 708 -.302
 709 -.302
 710 -.3
 711 -.305
 712 -.301
 713 -.314
 714 -.296
 715 -.291
 716 -.301
 717 -.299
 718 -.294
 719 -.295
 720 -.297
 721 -.301
 722 -.288
 723 -.293
 724 -.304
 725 -.305
 726 -.296
 727 -.294
 728 -.298
 729 -.301
 730 -.298
 731 -.298
 732 -.296
 733 -.302
 734 -.298
 735 -.29
 736 -.305
 737 -.306
 738 -.31
 739 -.299
 740 -.3
 741 -.296
 742 -.303
 743 -.3
 744 -.306
 745 -.31
 746 -.302
 747 -.283
 748 -.294
 749 -.297
 750 -.303
 751 -.299
 752 -.299
 753 -.298
 754 -.303
 755 -.301
 756 -.305
 757 -.299
 758 -.312
 759 -.296
 760 -.305
 761 -.3
 762 -.288
 763 -.305
 764 -.289
 765 -.3
 766 -.3
 767 -.295
 768 -.287
 769 -.299
 770 -.301
 771 -.291
 772 -.304
 773 -.309
 774 -.298
 775 -.311
 776 -.304
 777 -.3
 778 -.302
 779 -.309
 780 -.292
 781 -.309
 782 -.302
 783 -.295
 784 -.297
 785 -.3
 786 -.302
 787 -.297
 788 -.303
 789 -.302
 790 -.294
 791 -.301
 792 -.301
 793 -.315
 794 -.299
 795 -.304
 796 -.289
 797 -.305
 798 -.302
 799 -.303
 800 -.292
 801 -.301
 802 -.3
 803 -.293
 804 -.292
 805 -.303
 806 -.3
 807 -.307
 808 -.3
 809 -.296
 810 -.305
 811 -.301
 812 -.302
 813 -.304
 814 -.296
 815 -.298
 816 -.3
 817 -.3
 818 -.294
 819 -.297
 820 -.296
 821 -.295
 822 -.291
 823 -.303
 824 -.298
 825 -.297
 826 -.299
 827 -.307
 828 -.308
 829 -.301
 830 -.298
 831 -.306
 832 -.29
 833 -.299
 834 -.295
 835 -.301
 836 -.297
 837 -.306
 838 -.304
 839 -.311
 840 -.302
 841 -.297
 842 -.311
 843 -.304
 844 -.29
 845 -.29
 846 -.298
 847 -.307
 848 -.301
 849 -.292
 850 -.305
 851 -.308
 852 -.306
 853 -.298
 854 -.299
 855 -.289
 856 -.305
 857 -.297
 858 -.303
 859 -.304
 860 -.301
 861 -.291
 862 -.307
 863 -.29
 864 -.304
 865 -.294
 866 -.292
 867 -.3
 868 -.294
 869 -.294
 870 -.304
 871 -.306
 872 -.302
 873 -.307
 874 -.305
 875 -.305
 876 -.3
 877 -.298
 878 -.303
 879 -.297
 880 -.288
 881 -.305
 882 -.303
 883 -.293
 884 -.299
 885 -.298
 886 -.31
 887 -.305
 888 -.305
 889 -.304
 890 -.298
 891 -.288
 892 -.307
 893 -.284
 894 -.29
 895 -.294
 896 -.303
 897 -.306
 898 -.31
 899 -.296
 900 -.298
 901 -.289
 902 -.302
 903 -.302
 904 -.299
 905 -.294
 906 -.302
 907 -.302
 908 -.307
 909 -.312
 910 -.295
 911 -.299
 912 -.296
 913 -.296
 914 -.304
 915 -.3
 916 -.302
 917 -.305
 918 -.311
 919 -.297
 920 -.296
 921 -.294
 922 -.291
 923 -.293
 924 -.296
 925 -.304
 926 -.298
 927 -.301
 928 -.303
 929 -.307
 930 -.298
 931 -.304
 932 -.306
 933 -.305
 934 -.302
 935 -.299
 936 -.299
 937 -.306
 938 -.308
 939 -.293
 940 -.31
 941 -.297
 942 -.306
 943 -.298
 944 -.297
 945 -.296
 946 -.29
 947 -.295
 948 -.296
 949 -.306
 950 -.311
 951 -.305
 952 -.304
 953 -.289
 954 -.299
 955 -.288
 956 -.294
 957 -.296
 958 -.3
 959 -.295
 960 -.297
 961 -.295
 962 -.3
 963 -.309
 964 -.297
 965 -.297
 966 -.287
 967 -.303
 968 -.3
 969 -.306
 970 -.3
 971 -.303
 972 -.294
 973 -.304
 974 -.301
 975 -.302
 976 -.304
 977 -.308
 978 -.307
 979 -.306
 980 -.296
 981 -.303
 982 -.298
 983 -.303
 984 -.306
 985 -.303
 986 -.299
 987 -.293
 988 -.298
 989 -.304
 990 -.302
 991 -.301
 992 -.297
 993 -.302
 994 -.296
 995 -.305
 996 -.306
 997 -.294
 998 -.283
 999 -.294
 1000 -.306
