 1 .321
 2 .4679999
 3 .5569999
 4 .6079999
 5 .6359999
 6 .6679999
 7 .697
 8 .7039999
 9 .72
 10 .7329999
 11 .739
 12 .7509999
 13 .762
 14 .7689999
 15 .772
 16 .773
 17 .7789999
 18 .785
 19 .79
 20 .794
 21 .804
 22 .808
 23 .809
 24 .8109999
 25 .8169999
 26 .819
 27 .823
 28 .828
 29 .8289999
 30 .8309999
 31 .833
 32 .8349999
 33 .8349999
 34 .8349999
 35 .837
 36 .8389999
 37 .8399999
 38 .8399999
 39 .842
 40 .8429999
 41 .8429999
 42 .8429999
 43 .8429999
 44 .8429999
 45 .8429999
 46 .847
 47 .846
 48 .8479999
 49 .8519999
 50 .851
 51 .85
 52 .8479999
 53 .8489999
 54 .8479999
 55 .845
 56 .845
 57 .846
 58 .846
 59 .841
 60 .841
 61 .8399999
 62 .8379999
 63 .8349999
 64 .836
 65 .8349999
 66 .836
 67 .8349999
 68 .8309999
 69 .832
 70 .8309999
 71 .8309999
 72 .8289999
 73 .8289999
 74 .827
 75 .8169999
 76 .81
 77 .81
 78 .8069999
 79 .804
 80 .8009999
 81 .794
 82 .7879999
 83 .7879999
 84 .7929999
 85 .7969999
 86 .791
 87 .7919999
 88 .7919999
 89 .79
 90 .7969999
 91 .8
 92 .799
 93 .799
 94 .799
 95 .8019999
 96 .8029999
 97 .8009999
 98 .8
 99 .794
 100 .791
 101 .795
 102 .791
 103 .796
 104 .8
 105 .799
 106 .8009999
 107 .805
 108 .808
 109 .809
 110 .814
 111 .8119999
 112 .814
 113 .8059999
 114 .795
 115 .794
 116 .7889999
 117 .7889999
 118 .79
 119 .79
 120 .804
 121 .804
 122 .809
 123 .809
 124 .8059999
 125 .8019999
 126 .794
 127 .799
 128 .796
 129 .7979999
 130 .7979999
 131 .8019999
 132 .8059999
 133 .7979999
 134 .795
 135 .8029999
 136 .8029999
 137 .804
 138 .8029999
 139 .8019999
 140 .795
 141 .79
 142 .7979999
 143 .8019999
 144 .7879999
 145 .7879999
 146 .794
 147 .7979999
 148 .804
 149 .805
 150 .809
 151 .8069999
 152 .809
 153 .8169999
 154 .8119999
 155 .805
 156 .8059999
 157 .8019999
 158 .795
 159 .796
 160 .8009999
 161 .804
 162 .81
 163 .809
 164 .7969999
 165 .7969999
 166 .791
 167 .7929999
 168 .787
 169 .791
 170 .776
 171 .7799999
 172 .786
 173 .7919999
 174 .799
 175 .799
 176 .8029999
 177 .796
 178 .809
 179 .8109999
 180 .81
 181 .799
 182 .81
 183 .8029999
 184 .809
 185 .8109999
 186 .805
 187 .805
 188 .796
 189 .794
 190 .8009999
 191 .8059999
 192 .799
 193 .8019999
 194 .8119999
 195 .8159999
 196 .8109999
 197 .804
 198 .805
 199 .8059999
 200 .795
 201 .785
 202 .7929999
 203 .794
 204 .804
 205 .8029999
 206 .796
 207 .805
 208 .804
 209 .805
 210 .814
 211 .813
 212 .8069999
 213 .8059999
 214 .7919999
 215 .795
 216 .8029999
 217 .7969999
 218 .7889999
 219 .7889999
 220 .7879999
 221 .791
 222 .791
 223 .7879999
 224 .794
 225 .7969999
 226 .791
 227 .786
 228 .7929999
 229 .8009999
 230 .805
 231 .809
 232 .813
 233 .813
 234 .8059999
 235 .8
 236 .8059999
 237 .8019999
 238 .8059999
 239 .805
 240 .8
 241 .804
 242 .804
 243 .7979999
 244 .7919999
 245 .8029999
 246 .791
 247 .7969999
 248 .8
 249 .8069999
 250 .8109999
 251 .8109999
 252 .8029999
 253 .8029999
 254 .8
 255 .7979999
 256 .795
 257 .7919999
 258 .794
 259 .794
 260 .8009999
 261 .7969999
 262 .804
 263 .7969999
 264 .8
 265 .791
 266 .79
 267 .7979999
 268 .8069999
 269 .805
 270 .809
 271 .8019999
 272 .8009999
 273 .8029999
 274 .7969999
 275 .7969999
 276 .7929999
 277 .7929999
 278 .785
 279 .7969999
 280 .791
 281 .7979999
 282 .805
 283 .8019999
 284 .7979999
 285 .796
 286 .7919999
 287 .79
 288 .7929999
 289 .8009999
 290 .804
 291 .8059999
 292 .8059999
 293 .8059999
 294 .804
 295 .8109999
 296 .8109999
 297 .8009999
 298 .8029999
 299 .799
 300 .8019999
 301 .8009999
 302 .7979999
 303 .7969999
 304 .796
 305 .799
 306 .7979999
 307 .8009999
 308 .794
 309 .7969999
 310 .805
 311 .8069999
 312 .804
 313 .7969999
 314 .7969999
 315 .808
 316 .809
 317 .8019999
 318 .796
 319 .7919999
 320 .8019999
 321 .7979999
 322 .7879999
 323 .7829999
 324 .786
 325 .7889999
 326 .7919999
 327 .7969999
 328 .795
 329 .8
 330 .799
 331 .795
 332 .8019999
 333 .81
 334 .8069999
 335 .8119999
 336 .813
 337 .8119999
 338 .809
 339 .794
 340 .799
 341 .808
 342 .8069999
 343 .8029999
 344 .799
 345 .794
 346 .8
 347 .804
 348 .796
 349 .796
 350 .7979999
 351 .804
 352 .809
 353 .8029999
 354 .7969999
 355 .805
 356 .7969999
 357 .796
 358 .799
 359 .796
 360 .7979999
 361 .8009999
 362 .794
 363 .7979999
 364 .7969999
 365 .7929999
 366 .794
 367 .79
 368 .795
 369 .8059999
 370 .8149999
 371 .81
 372 .8029999
 373 .8059999
 374 .808
 375 .8009999
 376 .8029999
 377 .809
 378 .813
 379 .8109999
 380 .8029999
 381 .8
 382 .795
 383 .7929999
 384 .796
 385 .7969999
 386 .79
 387 .7969999
 388 .8009999
 389 .795
 390 .8029999
 391 .804
 392 .8009999
 393 .8029999
 394 .808
 395 .8109999
 396 .813
 397 .809
 398 .799
 399 .796
 400 .7889999
 401 .7889999
 402 .796
 403 .791
 404 .8029999
 405 .79
 406 .7969999
 407 .7919999
 408 .8019999
 409 .7969999
 410 .796
 411 .8009999
 412 .8029999
 413 .804
 414 .7969999
 415 .8069999
 416 .805
 417 .8019999
 418 .7979999
 419 .7979999
 420 .8019999
 421 .795
 422 .7979999
 423 .804
 424 .808
 425 .7979999
 426 .8
 427 .7969999
 428 .7969999
 429 .809
 430 .81
 431 .809
 432 .8019999
 433 .7979999
 434 .8019999
 435 .7969999
 436 .795
 437 .8
 438 .7979999
 439 .795
 440 .7979999
 441 .794
 442 .794
 443 .799
 444 .794
 445 .7969999
 446 .795
 447 .8
 448 .8009999
 449 .804
 450 .8059999
 451 .809
 452 .804
 453 .796
 454 .8
 455 .795
 456 .7919999
 457 .7979999
 458 .8069999
 459 .8059999
 460 .804
 461 .8119999
 462 .804
 463 .796
 464 .813
 465 .8119999
 466 .804
 467 .7969999
 468 .7979999
 469 .795
 470 .799
 471 .7929999
 472 .8
 473 .8009999
 474 .8119999
 475 .813
 476 .808
 477 .7969999
 478 .795
 479 .7969999
 480 .7929999
 481 .7969999
 482 .8
 483 .8029999
 484 .795
 485 .795
 486 .7919999
 487 .7799999
 488 .7929999
 489 .8019999
 490 .805
 491 .818
 492 .8209999
 493 .8119999
 494 .809
 495 .809
 496 .8029999
 497 .7969999
 498 .796
 499 .7879999
 500 .794
 501 .795
 502 .7879999
 503 .8
 504 .795
 505 .7969999
 506 .796
 507 .804
 508 .794
 509 .79
 510 .7889999
 511 .785
 512 .794
 513 .7879999
 514 .7879999
 515 .8019999
 516 .8009999
 517 .7979999
 518 .804
 519 .8119999
 520 .808
 521 .8069999
 522 .8
 523 .8109999
 524 .818
 525 .8109999
 526 .799
 527 .8019999
 528 .8109999
 529 .809
 530 .796
 531 .785
 532 .7879999
 533 .7929999
 534 .787
 535 .79
 536 .794
 537 .7839999
 538 .7919999
 539 .796
 540 .7979999
 541 .8059999
 542 .8109999
 543 .8
 544 .795
 545 .7919999
 546 .785
 547 .794
 548 .7929999
 549 .8029999
 550 .8
 551 .805
 552 .8
 553 .804
 554 .8109999
 555 .8159999
 556 .8169999
 557 .8159999
 558 .8119999
 559 .8069999
 560 .804
 561 .7979999
 562 .7979999
 563 .7969999
 564 .7879999
 565 .7789999
 566 .7929999
 567 .796
 568 .804
 569 .8019999
 570 .804
 571 .8009999
 572 .804
 573 .8
 574 .804
 575 .8109999
 576 .805
 577 .8029999
 578 .794
 579 .7929999
 580 .8019999
 581 .808
 582 .8069999
 583 .799
 584 .794
 585 .7929999
 586 .79
 587 .794
 588 .796
 589 .7879999
 590 .7799999
 591 .785
 592 .7889999
 593 .794
 594 .8059999
 595 .7969999
 596 .813
 597 .814
 598 .814
 599 .804
 600 .805
 601 .795
 602 .8019999
 603 .808
 604 .805
 605 .7969999
 606 .8009999
 607 .805
 608 .8029999
 609 .8019999
 610 .7879999
 611 .7969999
 612 .8059999
 613 .808
 614 .79
 615 .7979999
 616 .808
 617 .8109999
 618 .8109999
 619 .8119999
 620 .813
 621 .808
 622 .804
 623 .804
 624 .7979999
 625 .7979999
 626 .787
 627 .786
 628 .79
 629 .7889999
 630 .7969999
 631 .795
 632 .8
 633 .8019999
 634 .8019999
 635 .809
 636 .8059999
 637 .8019999
 638 .8019999
 639 .796
 640 .794
 641 .7929999
 642 .796
 643 .796
 644 .795
 645 .805
 646 .8009999
 647 .808
 648 .8119999
 649 .8119999
 650 .8119999
 651 .814
 652 .8069999
 653 .8059999
 654 .7929999
 655 .781
 656 .7889999
 657 .7779999
 658 .786
 659 .7879999
 660 .794
 661 .7969999
 662 .8029999
 663 .81
 664 .805
 665 .8019999
 666 .804
 667 .7979999
 668 .8069999
 669 .808
 670 .804
 671 .809
 672 .808
 673 .8019999
 674 .805
 675 .808
 676 .8009999
 677 .7919999
 678 .785
 679 .7919999
 680 .794
 681 .7919999
 682 .7919999
 683 .795
 684 .796
 685 .8009999
 686 .8
 687 .8009999
 688 .8
 689 .8059999
 690 .808
 691 .8059999
 692 .804
 693 .8019999
 694 .8
 695 .8029999
 696 .809
 697 .8029999
 698 .805
 699 .795
 700 .7969999
 701 .795
 702 .7919999
 703 .794
 704 .8029999
 705 .8009999
 706 .8019999
 707 .7969999
 708 .7919999
 709 .805
 710 .8019999
 711 .8059999
 712 .809
 713 .8109999
 714 .8
 715 .796
 716 .805
 717 .799
 718 .796
 719 .7979999
 720 .795
 721 .7919999
 722 .787
 723 .7889999
 724 .794
 725 .8019999
 726 .809
 727 .809
 728 .8109999
 729 .8059999
 730 .799
 731 .8009999
 732 .7879999
 733 .8
 734 .7979999
 735 .796
 736 .8059999
 737 .8019999
 738 .809
 739 .805
 740 .804
 741 .7969999
 742 .8059999
 743 .804
 744 .8009999
 745 .8059999
 746 .808
 747 .804
 748 .804
 749 .799
 750 .795
 751 .7889999
 752 .795
 753 .799
 754 .796
 755 .7879999
 756 .7919999
 757 .7919999
 758 .8
 759 .804
 760 .8109999
 761 .8169999
 762 .809
 763 .8059999
 764 .8059999
 765 .809
 766 .795
 767 .786
 768 .785
 769 .7779999
 770 .7839999
 771 .787
 772 .8009999
 773 .8019999
 774 .808
 775 .81
 776 .8019999
 777 .8009999
 778 .7979999
 779 .805
 780 .8109999
 781 .808
 782 .8059999
 783 .805
 784 .7979999
 785 .794
 786 .8
 787 .8
 788 .796
 789 .7979999
 790 .8009999
 791 .7919999
 792 .8029999
 793 .8059999
 794 .805
 795 .809
 796 .808
 797 .805
 798 .809
 799 .8029999
 800 .7889999
 801 .7929999
 802 .79
 803 .791
 804 .796
 805 .8019999
 806 .796
 807 .8069999
 808 .81
 809 .8059999
 810 .8109999
 811 .813
 812 .8
 813 .8069999
 814 .7969999
 815 .794
 816 .804
 817 .791
 818 .7799999
 819 .785
 820 .7799999
 821 .786
 822 .7919999
 823 .795
 824 .799
 825 .8019999
 826 .809
 827 .809
 828 .8059999
 829 .7969999
 830 .796
 831 .794
 832 .79
 833 .799
 834 .794
 835 .7929999
 836 .79
 837 .799
 838 .799
 839 .805
 840 .808
 841 .81
 842 .8119999
 843 .805
 844 .7969999
 845 .796
 846 .7969999
 847 .7929999
 848 .808
 849 .813
 850 .8059999
 851 .8
 852 .805
 853 .8019999
 854 .799
 855 .8029999
 856 .8019999
 857 .7979999
 858 .805
 859 .8109999
 860 .805
 861 .8019999
 862 .8069999
 863 .7979999
 864 .8009999
 865 .796
 866 .799
 867 .7979999
 868 .804
 869 .8029999
 870 .804
 871 .8
 872 .8019999
 873 .8029999
 874 .805
 875 .804
 876 .8019999
 877 .796
 878 .804
 879 .7979999
 880 .796
 881 .796
 882 .786
 883 .787
 884 .7929999
 885 .796
 886 .8029999
 887 .8159999
 888 .8109999
 889 .8019999
 890 .81
 891 .8119999
 892 .8019999
 893 .8
 894 .7889999
 895 .79
 896 .7969999
 897 .813
 898 .8149999
 899 .8019999
 900 .7969999
 901 .7979999
 902 .796
 903 .7969999
 904 .7969999
 905 .796
 906 .791
 907 .796
 908 .8
 909 .8009999
 910 .804
 911 .808
 912 .808
 913 .804
 914 .796
 915 .799
 916 .796
 917 .8
 918 .81
 919 .809
 920 .805
 921 .795
 922 .7929999
 923 .804
 924 .795
 925 .794
 926 .7969999
 927 .7969999
 928 .8
 929 .7889999
 930 .785
 931 .7889999
 932 .804
 933 .7969999
 934 .7979999
 935 .8059999
 936 .8
 937 .808
 938 .8069999
 939 .8059999
 940 .813
 941 .8069999
 942 .7979999
 943 .794
 944 .785
 945 .795
 946 .7839999
 947 .787
 948 .7889999
 949 .804
 950 .8109999
 951 .8169999
 952 .814
 953 .814
 954 .809
 955 .805
 956 .8109999
 957 .805
 958 .8019999
 959 .8
 960 .799
 961 .8019999
 962 .809
 963 .8
 964 .8019999
 965 .791
 966 .79
 967 .8
 968 .804
 969 .8169999
 970 .81
 971 .796
 972 .7889999
 973 .7929999
 974 .791
 975 .785
 976 .79
 977 .7889999
 978 .8
 979 .796
 980 .795
 981 .796
 982 .796
 983 .8009999
 984 .8
 985 .8009999
 986 .7979999
 987 .804
 988 .808
 989 .804
 990 .81
 991 .81
 992 .813
 993 .813
 994 .81
 995 .804
 996 .8069999
 997 .8019999
 998 .79
 999 .7889999
 1000 .7879999
